##TITLE=Sulfate Sodium Anhydrous,7757-82-6,Na2SO4,NDR0002
##JCAMP-DX=5.01  $$ Nicolet v. 521
##DATATYPE=RAMAN SPECTRUM
##ORIGIN=Nicodom
##OWNER=Nicolet
##LONGDATE=2014/12/12
##TIME=04:23:18
##DATA PROCESSING=
Multiplied by a scalar
Converted from JCAMP
##XUNITS=1/CM
##YUNITS=ARBITRARY UNITS
##FIRSTX=88.636932
##LASTX=4011.202393
##FIRSTY=0.000000
##MAXX=4011.202393
##MINX=88.636932
##MAXY=1.000000
##MINY=0.000000
##XFACTOR=1.000000
##YFACTOR=1.000000E-009
##NPOINTS=4069
##DELTAX=0.964249
##XYDATA=(X++(Y..Y))
88.637 0 190950 381901 803592 1121896 881788 676719 1142080 1696994 1940046 
98.279 1968236 1589697 1269633 1625470 2008688 1791175 1529117 1651914 
105.993 1911809 2240412 2529020 2628269 2591752 2391784 2122830 1822616 
113.707 1633676 1846724 2054960 1842533 1527334 1335638 1126450 652054 
121.421 458868 1431500 2307670 1688337 868393 720402 1112298 2556066 3992124 
130.100 4350648 4174354 3552520 2775610 2075980 1717235 2375248 3045565 
137.814 2498290 2085600 3162972 4490614 5300184 5532813 4567309 3322285 
145.528 2482519 2128320 2757973 3802324 5042594 5925946 5466213 4744610 
153.242 4655675 4773281 4915348 5244278 5989542 6767823 7273722 7502923 
160.956 7309834 6812880 5920680 5117086 4687818 5135895 7628178 10458846 
168.670 12253555 13184668 12629041 11598808 11032471 10527791 9916781 
175.419 9435172 9356403 9399319 9277490 9280181 9638716 10240491 11253522 
183.133 12067216 12036981 11432827 10019490 8668231 8370570 8530430 9057567 
190.847 9426014 8774653 8018705 7921270 8077590 8376878 8700348 8951501 
198.561 8952741 8346268 7576199 6874894 6519809 7118452 7913002 8542848 
206.275 8423868 6311496 3826442 2201510 1355871 1997882 2992821 3239503 
213.989 3345683 3505339 3858602 4914171 5760316 5474757 4597852 3110782 
221.703 1768810 1546321 1767140 1996693 2484572 3508987 4549531 5136110 
229.417 5395996 5243760 4847408 4214583 3740961 3969980 4466020 5126303 
237.131 5495744 4758913 3894060 3805287 3899617 3728461 3762771 4489297 
244.845 5412058 6269539 6845081 6649980 6238857 6221683 5943720 4538066 
252.559 3251171 3297723 3906116 4887012 5708302 5585591 5086396 4386862 
260.273 3876709 4198690 4769850 5313160 5553609 4814542 4023869 4172166 
267.987 4394799 3998349 3459700 2867494 2693052 3801643 5100079 5634658 
275.701 5852157 5878967 5722548 5367669 5008762 4834451 4846927 5279463 
283.416 5627454 5356186 4789250 3904600 3204441 3286087 3842176 4783772 
291.130 6052905 7900034 9310951 9069677 8032012 6338678 4918885 5163387 
298.844 5828259 6031085 6078080 5813072 5740816 6547380 7532686 8304883 
306.558 8625352 7796610 6803354 6519756 6579905 7092591 7507900 7011951 
314.272 6505483 6820522 7349347 7835651 8057235 7561024 6783352 5909451 
321.986 5239518 5327514 5597376 5633167 5508483 5088615 4582556 4156781 
329.700 3804101 3511591 3462931 4059333 4635290 4425032 4130558 4258475 
337.414 4629199 5408725 6066933 5932518 5595029 5438240 5408173 5582815 
345.128 5950035 6789505 7303800 6416233 5244262 4630917 4322801 4417561 
352.843 4705094 5003852 5325821 5684152 5893807 5642707 5325136 5327959 
360.557 5361375 5255298 5037459 4468817 4179583 5082523 6090963 6400038 
368.271 6077134 4542344 2932705 2326642 2320072 3005813 3971594 4919707 
375.985 5599295 5486015 5102642 4753882 4569614 5002551 5388899 5055025 
383.699 4483131 3904417 3398263 3132429 3072958 3393444 3639005 3057398 
391.413 2714309 3796950 5188514 6179777 6735197 6355823 5722678 5335198 
399.127 5239224 5809929 6558730 7123579 7500048 7489993 7312548 7125137 
406.841 6914709 6819600 6543081 5596990 4693961 4408162 4666792 5772295 
414.555 7173103 8517751 9508410 9544383 9182810 8796147 8337727 7861498 
422.270 7438115 7164845 7015839 6891547 7110290 8153110 9432302 10435998 
429.984 11417741 12603773 13564124 13732548 13744120 14152823 14635690 
436.734 14910471 15409010 16464343 18090698 20495954 23432252 26705090 
443.483 30362290 34254992 38778728 44641716 50757164 56757436 61193576 
450.233 62140720 60659228 56650536 51666488 47219068 43328924 40596556 
456.983 38794420 37703244 37898736 40152220 43657612 48249252 52777080 
463.733 55982044 58025472 58659548 57852516 55454580 51571944 45831764 
470.483 39521480 33807004 28680018 24598720 21329386 18808046 16983670 
477.233 16092509 15208752 13165678 10922269 8987627 7544675 7084721 7191709 
484.947 7752393 8349615 8222378 8288949 9675397 10997361 11126013 10420857 
492.661 8429790 6458799 5999298 6042904 6114335 6105716 5537125 5049404 
500.375 5307825 5759150 5982870 6246072 6931700 7271677 6175861 4993394 
508.089 4880235 5325787 6442879 7517195 7887264 7507391 5693142 3699205 
515.803 2649735 2251904 2801020 3656826 4372190 4663049 3847828 2671935 
523.517 1598895 792776 524858 937028 2674742 4498570 5135359 5331743 5501975 
532.195 5370036 4749031 3785857 2319677 1086807 1033379 1369115 1563231 
539.909 1783373 2060869 2273877 2153524 2172242 2916264 3775332 4329805 
547.623 4594074 4236758 3875529 4125401 4662978 5530778 6246097 6172319 
555.337 5813696 5455969 5118046 5019784 4844090 4121432 3528986 3777548 
563.051 4296737 4771432 5146688 5272540 5118950 4439112 3733353 3538177 
570.764 3498276 3462511 3354881 2964454 2544893 2124600 2168417 3541835 
578.478 5071316 5799338 5943347 5185792 4174144 3410339 3013426 3492561 
586.192 4179332 4652641 4679715 3531284 2275772 1735811 1919544 3475526 
593.906 5305140 6477146 7137967 7005381 6434104 5682639 4757402 3595046 
601.620 2663371 2505188 2832115 3506143 4618976 6557100 8298193 8639845 
609.334 8508825 8231039 8406655 9837084 12244494 15049092 19958128 28756828 
617.048 40631352 57719340 72951736 79615416 78780384 66521720 51111024 
623.797 39723968 31723476 29439066 31146590 36111824 43694524 54024972 
630.547 64057364 71504112 74220784 67521032 56743052 45165768 34280600 
637.297 27052446 22339976 20073664 20003140 21674006 25628804 32708436 
644.046 41563440 52472124 61392000 64065164 61416244 51274320 38668216 
650.796 27867902 18978814 14279746 11520565 9238941 7350269 4959222 3035663 
658.510 2471820 2605299 3232828 3869263 3838731 3510143 2841221 2389658 
666.224 2956438 3769385 4308492 4618236 4536418 4163053 3394032 2679508 
673.937 2630978 2660312 2158459 1799686 2310931 2925136 3090588 2888216 
681.651 1906195 1071095 1572024 2209533 1837138 1485048 2136979 2785939 
689.365 2515216 2037694 1663807 1684180 2947090 4090014 3669869 2776637 
697.079 2009566 1397801 1143505 1326876 2381479 3449374 3664465 3484808 
704.793 2946428 2449297 2616610 2814724 2523361 2025625 1253834 740068 
712.507 1312936 2015193 1908571 1764782 2196204 2742589 3179588 3411870 
720.221 3102788 2751949 2881734 3087170 3167088 3032443 2317404 1651167 
727.934 1749886 1986858 1785827 1711600 2347251 3061712 3437399 3416928 
735.648 2587995 1597744 936778 662426 1212948 1936154 2178863 2382316 
743.362 2992299 3341985 2581164 1705751 1697316 1748679 1096483 590826 
751.076 1078023 1806102 2215820 2575338 3086371 3389014 2942394 2491144 
758.790 2928658 3267791 2496524 1582866 1334657 1220381 802567 606921 
766.504 1121694 2021801 3372808 4491016 4510056 4043525 3356738 2628180 
774.218 2250583 1846520 891639 219447 757931 1699304 2568330 3295329 3697759 
782.896 3638949 2620285 1545053 1224700 1436129 2459432 3596505 4282206 
790.610 4397765 3202373 1997015 2205519 2718537 2704771 2753920 3371221 
798.323 3978754 4199576 3936008 2614678 1285751 1051556 1182216 1276016 
806.037 1450793 1645842 1995051 2678046 3496911 4503004 5128137 4458430 
813.751 3582320 3414512 3562311 4137470 4541368 4022508 3151239 2110857 
821.465 1310991 1455591 1844996 1946223 1963197 1796066 1823158 2610518 
829.179 3495148 3991332 4133260 3685664 2971208 2092134 1474423 1791685 
836.893 2403256 2824246 3260928 3948846 4315288 3543225 2601124 2370915 
844.607 2295180 2089950 1816795 1310754 967439 1280380 1790879 2265836 
852.321 2522006 2058724 1595155 1897045 2323991 2328882 2397592 2955636 
860.034 3636993 4207518 4697089 5174238 5288867 4591052 3448797 1779420 
867.748 485054 886056 1645071 1658084 1545436 1612110 1700153 1700977 
875.462 1771483 2164868 2483660 2277148 1958231 1865748 1771195 1505906 
883.176 1229210 1016026 950905 1152321 1593413 2454476 3232492 3352724 
890.890 3210618 3064056 2750994 1993289 1397118 1730991 2229740 2294812 
898.604 2194871 1869820 1707388 2395891 2973477 2309928 1598661 1979484 
906.318 2483012 2357987 2089791 1991231 1828766 1364047 924308 702335 863145 
914.996 1832412 3020973 3974523 4714164 5077358 5160675 5031746 4614854 
922.710 3568939 2757685 3376571 4089167 3666462 2981684 2609274 2216600 
930.423 1531555 947017 880259 985987 896531 1096261 2112753 3448723 4874761 
939.102 6114809 6922734 6979343 5407152 3634898 3188687 2898896 1635187 
946.815 805821 1894738 3544560 4855523 5938741 6609189 6855529 6456338 
954.529 5856863 5620409 5171422 3775162 2472475 2287760 2535627 2671223 
962.243 3297333 5439793 7284594 6661304 5665017 6004621 6668272 6978612 
969.957 7641054 9465097 11461124 12600332 13809755 16430391 18191546 
976.707 16112126 13664365 13991524 15099430 15262472 16818204 22157074 
983.456 29394770 34952348 46304044 62164412 105233416 192514112 339811712 
990.206 617228416 878876416 1000000000 987306240 748205376 455833600 
995.991 268616736 138097440 80711264 60206496 45006752 37521456 28297216 
1002.741 21346118 18393836 16846220 14122928 11908225 11713248 11477003 
1009.491 8563816 6208866 7871541 10243556 10852790 10650133 9742836 8189657 
1017.204 5570727 3429120 3722397 4787255 5566898 6199359 6660470 6379992 
1024.918 4133353 1859357 1307101 1821148 3877526 5830948 5829490 4969083 
1032.632 3431133 2107279 2378491 2958190 2856332 2564292 2203422 1893741 
1040.346 1827105 1909329 2245884 2429671 1895366 1223146 622821 640162 
1048.060 2245043 4374963 6560770 7992293 7166227 5692878 4934279 4132017 
1055.774 2715464 1483277 1337784 1397354 798472 389092 1063118 1819163 
1063.488 1657971 1467046 2019621 2659252 2900109 3003544 3140577 3096375 
1071.202 2420578 1990804 2902754 4051811 4556467 4843082 5047353 5159773 
1078.915 5250562 5216249 4940183 4532111 3992186 3532525 3373087 3490502 
1086.629 3901959 4705725 6260364 7802163 8338864 8914684 10063841 12324058 
1094.343 16618095 22325064 29232216 37037996 45480904 54228088 64766736 
1101.093 71375296 67111096 57124788 42870816 28495156 19311918 13271119 
1107.842 10760888 9781050 8201848 6800174 5579367 4730322 4482701 4723557 
1115.556 5600152 6561524 7068061 7232981 6948821 6338053 5118218 4396650 
1123.270 5326004 7487834 10493319 15406212 23407974 33756652 48088976 
1130.020 60450336 65075896 63033200 51007660 36380984 26106094 18154732 
1136.769 13119709 10090712 8506439 7912704 7694569 7773019 7744496 7967703 
1144.483 8103438 9841870 14310876 22858032 38446704 57357384 80344800 
1151.233 96949544 93922976 80387432 58314612 35907760 23777528 16673414 
1157.983 13541276 12402693 10762664 9116805 6859853 4799423 3606862 3085722 
1165.696 3574313 4139687 3814719 3040257 1709437 498272 170280 356082 
1173.410 1035998 1924468 2754181 3450716 3926206 3953667 2979157 1895700 
1181.124 1469907 1527075 2349772 3332781 3941860 4246657 4057195 3618124 
1188.838 3119805 2535154 1796918 1215994 1091391 1391521 2413980 3470210 
1196.552 3871522 3915911 3467901 3139206 3811390 4539428 4539516 4209540 
1204.266 3691694 2969256 1913785 1002637 855996 916936 558736 610968 2285807 
1212.944 3808715 3252813 2287326 2239916 2208416 1522256 814321 477856 
1220.658 561209 1422775 2525656 3589398 4203069 3594108 2566957 1649466 
1228.372 898827 584527 597537 1046957 1547855 1668024 1658362 1599795 
1236.085 1570018 1706205 1910850 2280125 2370166 1410067 477112 614868 
1243.799 1153579 1917267 2468168 1959933 1442343 1941902 2682063 3145006 
1251.513 3581049 4118410 4605588 5011101 5103094 4397840 3619464 3553161 
1259.227 3532006 3020922 2409533 1813527 1519640 2276069 2814113 1543168 
1266.941 177139 208489 710935 1273540 1842720 2307820 2429123 1609536 810514 
1275.619 978507 1561463 2499953 3262549 3172518 2606338 1449666 498239 
1283.333 881059 1483982 1367752 1136677 1056468 1203658 2010860 2675551 
1291.047 2241755 1602454 1322267 1430303 2410698 3462992 3966251 3866036 
1298.761 2447716 1070892 1278555 1805902 1696285 1568239 1836007 2155810 
1306.474 2242696 2334405 2702863 2960570 2587816 2253160 2724283 3184114 
1314.188 2840502 2386384 2425446 2433310 1924763 1385983 1135672 1191022 
1321.902 1917437 2588987 2458620 1955119 984967 368018 1350855 2559743 
1329.616 2821245 2781055 2596025 2559255 3352288 3966655 3254334 2315526 
1337.330 2082296 1911041 1291659 755718 725307 1018779 1719403 2454509 
1345.044 2787449 2993427 3086295 3413453 4731253 5826693 5414450 4467807 
1352.758 3500995 2605843 2146043 1820248 1318087 1030338 1460552 1960031 
1360.472 1927611 1724239 1479266 1286353 1254444 1467049 2238513 2985264 
1368.185 3044690 2968282 3293349 3399839 2562820 1634246 1389327 1333372 
1375.899 1233496 1079483 622304 345507 880018 1534665 1724276 1761797 
1383.613 1744794 1734232 1793370 2012891 2690813 3268401 3117160 2744400 
1391.327 2413044 2227750 2526396 2872262 2839720 2733379 2777521 2787487 
1399.041 2665927 2375197 1717053 1075947 847335 799939 804048 950387 1426604 
1407.719 1812196 1549570 1237638 1447344 1705011 1706362 1514153 875683 
1415.433 433063 1021683 1808987 2195522 2317348 2034520 1575614 1027317 
1423.147 675349 1089682 1504243 1118390 605781 403255 420625 826563 1281320 
1431.825 1503969 1486713 956781 428167 489333 644054 364280 333957 1400268 
1440.503 2545441 2962858 2866231 1935481 965357 853078 971136 877460 912926 
1449.181 1361514 1951849 2550775 3027601 3172892 3089734 2699137 2337879 
1456.895 2557864 2634724 1655682 737859 1011360 1524441 1662415 1544221 
1464.609 865392 281450 573958 1060316 1144546 1348346 2330497 3083774 
1472.323 2454624 1540785 1217647 998697 589000 289220 422057 626480 576227 
1481.001 489701 505111 536770 542291 530010 491545 434672 288983 280662 
1489.679 653722 1284285 2303999 3190263 3305371 3126253 2910988 2678397 
1497.393 2574564 2475753 2296829 2068070 1788394 1466771 1065625 723543 
1505.107 508002 594768 1418158 2269995 2406111 2368808 2530197 2656678 
1512.820 2676630 2476201 1732916 1001004 863973 911509 902430 912849 926954 
1521.499 979332 1141868 1286872 1259331 1213116 1205893 1371257 2067057 
1529.212 2678185 2600161 2158932 1317997 560232 535286 706338 674551 675641 
1537.891 810764 1084780 1583157 2165201 2799139 3243651 3175362 2808650 
1545.604 2184413 1499709 924157 580957 747935 1130790 1609286 1939036 
1553.318 1639231 1298921 1555486 1783127 1388254 911598 717913 741547 
1561.032 1171627 1608570 1689496 1493420 727909 144432 754907 1485523 
1568.746 1411540 1097632 734274 519334 806266 1318787 2002344 2545172 
1576.460 2511964 2218783 1820375 1365394 832235 586420 1292227 2031760 
1584.174 1869401 1522596 1463585 1492379 1579492 1685672 1745377 1807987 
1591.888 1925168 2024547 2010837 2004436 2177195 2279444 1950791 1695254 
1599.601 2104594 2555168 2522534 2300843 1993316 1648310 1343339 1094169 
1607.315 915023 888058 1199072 1551361 1591326 1675452 2212484 2692042 
1615.029 2643835 2356350 1844054 1458721 1721493 2138710 2477588 2476618 
1622.743 1442365 437830 573934 1013504 1277971 1402463 1083708 858348 
1630.457 1364950 1994469 2262435 2433690 2741861 2796123 1960447 1204059 
1638.171 1619880 2200805 2092863 1929553 2247341 2483351 2068311 1557890 
1645.885 1477040 1348621 516109 42616 1252729 2705469 3215750 3340484 
1653.599 3152397 2918965 3100053 3191218 2675400 2050309 1708166 1448395 
1661.312 1049812 966459 1914948 2886384 2909524 2588027 2208967 1750859 
1669.026 1206064 820120 951120 1253756 1479822 1696112 1951512 2051532 
1676.740 1551296 1250856 2120640 3204652 3855361 4117818 3747088 2965611 
1684.454 1680439 592805 587216 1020876 1680461 2162073 1726694 1166364 
1692.168 1177233 1307940 1248798 1270934 1750379 2062727 1340576 688935 
1699.882 1267705 2044814 2330273 2257722 1449988 749514 1089056 1820526 
1707.596 2684357 3447772 3763034 3715464 3042559 2440058 2750533 3270974 
1715.309 3593605 3675296 3121358 2578687 2718011 3073152 3589504 3703097 
1723.023 2352916 975504 1039803 1387607 1166031 928053 934824 1208914 
1730.737 2042562 2887907 3289624 3262308 2376939 1509034 1709388 2023150 
1738.451 1605931 1177129 1278478 1598598 2088320 2502767 2525226 2322057 
1746.165 1921130 1421211 884600 448560 234105 352282 1125129 2040681 2763470 
1754.843 3086072 2438843 1572995 1151418 869429 579571 473061 873359 1236314 
1763.521 919697 541218 564476 809574 1266339 1889220 2803010 3486529 3246777 
1772.199 2724012 2413316 2057221 1426513 931505 979283 1350320 2151533 
1779.913 2810651 2599247 2092703 1601795 1191912 1025651 1122162 1728387 
1787.627 2323549 2346424 2165305 1963980 1734730 1503740 1353088 1498265 
1795.341 1565208 1018201 557696 970886 1461832 1269675 1076372 1563438 
1803.055 1971327 1517789 952450 881198 953001 899740 1078564 2093985 2935791 
1811.733 2428850 1672426 1511958 1533791 1617010 1728833 1863271 1819034 
1819.447 1122550 584685 1272974 1943828 1285134 570019 988637 1477788 
1827.161 1113071 668241 726363 935104 1200718 1330538 892689 511072 885388 
1835.839 1356371 1305169 1310237 1874135 2605697 3400472 3900863 3484445 
1843.552 2841258 2472962 2322249 2598771 3003290 3227145 3508261 4119929 
1851.266 4647402 4729285 4478796 3722478 2958963 2786937 2732755 2461610 
1858.980 2155690 1908714 1651290 1281203 990632 957548 1122355 1596038 
1866.694 2044776 2150484 1976921 1251676 665189 1134257 1707400 1439492 
1874.408 1228272 1946728 2723978 2911649 2715203 1854743 1137988 1551464 
1882.122 2278843 2934300 3212829 2319807 1338269 1369308 1564143 1291287 
1889.836 999960 997485 1078069 1117149 1178344 1385737 1433364 767636 255505 
1898.514 859889 1739319 2353740 2761830 2759985 2594977 2409794 2312196 
1906.228 2615259 2846010 2464166 1984721 1748716 1737705 2313546 2676356 
1913.942 1760365 725079 605415 709354 570188 546909 990437 1458276 1549030 
1922.620 1490310 1334972 1205871 1250057 1447788 1974440 2391717 2133017 
1930.333 1758651 1729889 1777257 1780479 1753235 1593552 1528122 1837914 
1938.047 2258126 2649976 2916378 2916192 2642786 1855430 1115273 1111935 
1945.761 1219276 841667 577205 1063690 1586395 1519233 1234096 854061 499463 
1954.439 336026 350650 568065 1040512 2129850 2931940 2290403 1323818 898537 
1963.117 614866 320523 139642 81317 338365 1441128 2386120 1988634 1322689 
1971.796 1172383 1222766 1423451 1764867 2312429 2790792 2972893 2779298 
1979.509 1779986 799656 740652 940045 981053 1027568 1037932 1211997 1912677 
1988.188 2609111 2796501 2759580 2247125 2362194 4377198 7532844 12340927 
1995.901 16260600 16413061 14323907 9813076 5118729 2917928 1713911 876484 
2003.615 483007 297542 629796 2108536 3540631 3775335 3314263 1962150 658886 
2012.293 605925 823279 456747 330416 1329490 2416428 2700633 2626479 2227041 
2020.971 1845622 1979488 2199842 2228303 2110907 1717430 1298268 1068610 
2028.685 1003852 1308310 1510408 939633 397115 690007 1129727 1257292 
2036.399 1191049 721748 373191 880137 1400474 1033060 689747 1246089 1909846 
2045.077 2145832 2058439 1305714 691520 1173644 1948367 2601571 2922232 
2052.792 2295401 1518747 1296010 1294028 1487445 1656572 1480281 1237541 
2060.507 1075953 1068498 1542588 1882529 1321959 640300 423367 485629 938228 
2069.186 1476966 1842957 2011413 1769771 1422471 1157585 1111659 1694200 
2076.901 2274396 2142747 1944830 2262049 2577436 2521111 2233193 1585024 
2084.615 1013050 1077644 1278364 1244460 1147232 977552 905937 1249847 
2092.330 1559302 1333703 1042361 1051736 1169776 1337939 1522147 1674242 
2100.045 1777931 1792375 1743068 1605511 1488838 1523062 1621051 1776763 
2107.760 1876942 1790070 1564875 1112698 714177 668708 831362 1291362 
2115.475 1645649 1319087 917135 871796 1128298 2023269 2814524 2695809 
2123.190 2195955 1431354 833075 1069665 1545080 1864905 2092799 2150870 
2130.905 2069335 1656765 1500209 2407082 3524867 4319329 4643037 3922441 
2138.619 2901644 2195204 1618210 1178763 912376 897332 1013411 1129268 
2146.334 1356513 1864929 2348658 2555617 2494242 1920218 1339705 1374102 
2154.049 1433375 894208 477837 985897 1553873 1172559 1077665 2853663 
2161.764 4445059 3779549 2492047 1551003 883495 883683 1118783 1344588 
2169.479 1389556 790927 178145 154761 335673 532766 758618 1001786 1146222 
2178.158 1028187 779306 363379 120122 593042 1134569 1161063 1024239 786063 
2186.837 732140 1388219 2095823 2261431 2215928 2146419 1890737 1114086 
2194.552 521452 922251 1668399 2481087 3061912 2915152 2353960 1296541 
2202.267 432011 709654 1267164 1511292 1584154 1344687 1049184 861834 917886 
2210.946 1646262 2330153 2161638 1842979 2026428 2054102 1173402 320705 
2218.661 441880 755857 588189 564885 1307664 2154962 2623095 2800175 2557002 
2227.340 2061838 1333972 691119 545434 632885 901712 1127252 910792 722719 
2236.019 1084555 1444164 1299616 1021817 813126 677250 659398 837427 1536962 
2244.698 2059897 1542300 807266 473153 290216 188020 246988 613558 1019264 
2253.378 1223268 1289135 1082081 956314 1312609 1876478 2618609 3204265 
2261.093 3196077 2872634 2311935 1678391 1179353 764002 385392 239248 721849 
2269.772 1184600 791564 501021 1334452 2266314 2438741 2370178 2342620 
2277.487 2207550 1867831 1451317 1021959 674323 571766 571859 552542 616061 
2286.166 774353 1176298 2240663 3169735 3146503 2647606 1702264 835710 
2293.881 720529 943894 1421234 1840393 1659316 1483129 2002070 2418751 
2301.595 1909912 1243414 961273 917758 1276972 1651456 1609920 1447964 
2309.310 1282678 1218295 1431647 1822035 2497756 3008640 2810701 2293681 
2317.025 1568098 927625 838139 893546 747095 686629 985499 1340429 1591153 
2325.704 1581972 844249 156525 279551 798027 1718579 2536187 2593257 2354160 
2334.384 1977684 1722990 2145241 2515197 2001538 1465665 1670377 2080156 
2342.098 2458280 2671147 2466847 1963577 987494 162814 249848 666492 1073568 
2350.778 1502609 1928685 2182018 1984539 1636168 1298449 1108439 1393762 
2358.492 1744260 1801893 1737930 1572449 1400979 1298987 1346740 1675313 
2366.207 2207748 3070538 3784384 3847889 3453841 2408173 1370034 1069385 
2373.922 1099697 1354530 1663580 1849685 1826974 1266559 720324 761927 
2381.637 997178 1203240 1439714 1710978 1959879 2150741 2223531 2035710 
2389.352 1799127 1772524 1672699 1140193 662511 719413 974666 1282237 
2397.067 1551289 1636497 1555283 1193017 800521 612842 562661 670898 907896 
2405.746 1340232 1700143 1636078 1465968 1436792 1409855 1318594 1193593 
2413.461 992724 867553 1078618 1256878 950488 668387 995170 1252026 598065 
2422.140 104130 985601 1967971 1986474 1627286 1002031 469625 561477 871735 
2430.819 1127106 1461279 2091604 2493815 1935549 1258448 1248819 1340288 
2438.534 1089179 913694 1180555 1600515 2074461 2398730 2242397 1888125 
2446.249 1386456 1102844 1679548 2336714 2366613 2195129 1992272 1817941 
2453.964 1905737 1904566 1371400 815644 632521 721560 1262991 1809947 
2461.678 1848402 1760092 1855471 1834353 1306913 852550 1115689 1511439 
2469.393 1590097 1590534 1576134 1623636 1920434 2197921 2260308 2076522 
2477.108 1355083 681414 683185 942174 1281020 1604819 1726122 1745197 
2484.823 1698104 1589995 1392855 1242229 1254190 1459147 2078661 2655359 
2492.538 2671887 2529756 2511348 2456670 2296957 2040922 1515029 1197272 
2500.253 1792423 2446610 2398211 2075258 1555553 1128164 1254002 1495341 
2507.968 1453680 1472228 1852746 2321067 2813424 3000364 2217470 1405877 
2515.682 1527112 1855601 1926517 1919162 1885937 1742741 1318853 926554 
2523.397 796113 1002855 1942251 2884145 3121486 2980443 2418123 1834634 
2531.112 1644515 1761580 2380211 3073257 3456144 3595522 3347711 2959135 
2538.827 2691998 2355296 1691232 1162360 1239792 1640036 2411363 3029598 
2546.542 2697860 2282549 2609348 3003538 3049189 2795633 1960664 1122974 
2554.257 945089 893318 443812 229581 948881 1882099 2528695 2929699 2835916 
2562.936 2617488 2581854 2667937 3145133 3329448 2226055 1036849 844897 
2570.651 1011868 1272035 1590658 1753281 2033330 2759046 3551520 4252621 
2578.365 4528264 3719610 2642786 1939243 1474171 1494337 1496461 752992 
2586.080 183520 820010 1597788 1588846 1415145 1447807 1511332 1553642 
2593.795 1575611 1576065 1509076 1228333 1033830 1329175 1657218 1617337 
2601.510 1443562 1102890 995785 1791375 2650670 2838296 2712536 2273530 
2609.225 1860310 2017478 2128461 1485153 906745 1184454 1694081 2040352 
2616.940 2327710 2530163 2643759 2698355 2566528 1996343 1391204 1086755 
2624.655 1034340 1426987 1875303 2034399 1963798 1450610 967172 1087111 
2632.369 1293669 1072365 990001 1712477 2428032 2395835 2068996 1562292 
2640.084 1149912 1287402 1545485 1644135 1591153 1146251 773663 1007434 
2647.799 1397843 1716204 1833449 1396823 848696 479557 392275 995273 1662388 
2656.478 1796522 1718921 1394234 1295167 2154803 3156659 3723667 3870664 
2664.193 3207580 2372068 1972550 1706659 1467082 1277081 950910 1008285 
2671.908 2357307 3647069 3517195 2904187 2289082 1677895 1205147 966344 
2679.623 1203181 1611630 2025845 2272975 1955095 1581555 1595521 1797595 
2687.338 2269802 2611029 2282544 1779213 1411245 1193889 1337937 1566977 
2695.052 1672977 1661590 1383191 1095568 1114170 1116367 753176 419094 
2702.767 515915 672769 580702 455779 406316 446589 737077 947486 652719 
2711.447 297687 205145 316484 777748 1297730 1648134 1786280 1439434 1069441 
2720.126 1218900 1372815 966032 691627 1388373 2053974 1660303 1123633 
2727.841 1245353 1342005 698821 211130 938540 1673454 1230798 602626 488738 
2736.520 580812 903937 1157674 839806 580721 1067210 1627855 1780364 1644147 
2745.199 898075 381481 1235057 2233605 2343778 2130722 1713167 1397018 
2752.914 1788673 2105401 1407789 772269 1280525 1977392 2174229 2153155 
2760.629 1977264 1614967 852555 299482 818342 1435965 1239682 910574 851660 
2769.308 984470 1534433 1992865 1744646 1334536 1103070 1047809 1441402 
2777.023 1799135 1597089 1225531 842958 620759 917642 1330163 1514356 
2784.738 1650502 1788185 1975520 2439467 2693056 2111051 1335228 694185 
2792.452 502238 1540932 2737196 3184303 3164795 2507086 1666836 1017521 
2800.167 634086 894175 1263176 1200016 1101710 1268839 1449625 1485509 
2807.882 1397416 1092059 753522 499069 435896 851336 1322250 1435112 1448420 
2816.561 1579743 1538364 890311 282909 293331 698021 1753771 2596709 2068013 
2825.240 1309340 1305303 1368223 897625 616523 1323828 2191376 2583989 
2832.955 2721632 2548504 2256716 2049732 1837677 1547004 1332197 1460169 
2840.670 1520088 915289 470178 1173020 1935581 1720357 1363417 1557468 
2848.385 1695105 1211535 671622 530594 552574 650108 833157 1169415 1398191 
2857.064 1115914 818918 996680 1266203 1309642 1421009 1956017 2411698 
2864.779 2186622 1931854 2214803 2685011 3341185 3703231 3088811 2103336 
2872.494 961612 153116 541082 1219032 1439014 1588678 1892627 2092053 
2880.209 1840645 1625506 2027581 2419041 2220553 1867585 1683933 1425279 
2887.924 773468 273811 556143 1048735 1367498 1579372 1596710 1499201 
2895.638 1328156 1111062 826692 662504 954568 1235815 930140 700670 1319289 
2904.318 1883594 1412299 913928 1353227 1880234 1792408 1612249 1685089 
2912.032 1839893 2034975 2227597 2350794 2435546 2551996 2515690 2044674 
2919.747 1501599 1210592 1005279 805765 676715 702462 744104 619090 542702 
2928.427 712709 999097 1490777 1728751 924791 155524 605358 1162723 831378 
2937.106 449749 685866 1054689 1265735 1403356 1392255 1420894 1801770 
2944.821 2087486 1802939 1343761 866213 613309 985336 1666768 2702459 
2952.535 3411572 2736982 1852414 1797744 1917406 1849099 1752903 1686153 
2960.250 1594767 1425797 1233174 1004935 885796 1056534 1396994 2032504 
2967.965 2407416 1636268 833836 1126763 1593979 1625082 1414721 711992 
2975.680 243149 1103262 1934956 1273243 536035 1000258 1623877 1615010 
2983.395 1500129 1594455 1739856 1914582 2024730 1814756 1747838 2480585 
2991.110 3177169 3085842 2610975 1758916 971976 821038 926747 1112476 
2998.824 1340907 1557799 1637290 1276262 952254 1182815 1544809 1694703 
3006.539 1911248 2552088 3037023 2724537 2156242 1641198 1235536 1130600 
3014.254 1229816 1584732 1942323 2097437 1958004 1059731 314124 841225 
3021.969 1551118 1414105 1369542 2470031 3346148 2521427 1369603 963453 
3029.684 729394 331361 129555 521680 1059145 1407102 1622007 1603807 1487185 
3038.363 1379816 1262679 1143020 1049703 1051531 1035935 881719 683560 
3046.078 453492 318257 456152 724529 1045455 1403075 1756349 2102918 2481974 
3054.757 2727808 2623062 2361886 2071040 1735335 1288682 1010556 1374124 
3062.472 1732211 1425909 963584 659507 437052 285375 321401 770140 1296493 
3071.151 1636663 1801731 1681760 1376005 807539 394963 696445 1216340 
3078.866 1559397 1982609 2772658 3445224 3562880 3271628 2374085 1463010 
3086.581 1226407 1181182 1026097 903593 850401 882405 1152637 1286392 609038 
3095.260 173410 1290442 2511215 2579877 2228160 1736801 1202957 829093 
3102.975 580030 529407 553249 497774 526059 879936 1169340 907373 626349 
3111.654 815044 1117182 1326013 1481736 1609433 1547702 892454 396816 953401 
3120.333 1739651 2152394 2426090 2714462 2656543 1608018 572632 595544 
3128.048 908205 1061838 1142276 1052921 892284 696818 556122 605131 744297 
3136.727 915162 1129354 1435963 1664122 1642718 1421583 747001 358491 
3144.442 1303121 2404509 2693991 2595477 2140296 1537518 983336 547708 
3152.157 427103 438167 405356 501682 1044719 1425258 780189 188818 829442 
3160.836 1541990 1302882 880946 764169 771495 966265 1103280 782904 531783 
3169.515 964631 1417617 1250930 1007230 1049483 1276974 1826128 2348504 
3177.230 2434481 2404033 2517341 2544158 2317044 1907764 1197311 590576 
3184.945 517471 783911 1541978 2183070 1974409 1440599 756111 238535 390565 
3193.624 831357 1454295 1939388 1775158 1429467 1204642 1085821 1243518 
3201.339 1423921 1328122 1261937 1610636 1836955 1191739 695928 1544741 
3209.054 2466186 2390076 1906198 1099581 414304 501825 825035 1065293 
3216.769 1218651 1100934 934185 937938 935544 765437 601918 576825 655984 
3225.448 951761 1156372 743092 481069 1353591 2191512 1886357 1239406 654834 
3234.127 215467 195092 424990 950610 1403222 1218093 1028682 1448519 1972662 
3242.806 2268265 2432578 2380150 2326242 2662761 2774305 1850890 868178 
3250.521 716056 841886 1011324 1159380 1059484 962013 1056573 1298902 
3258.236 1801103 2283685 2512198 2463610 1839169 1231589 1380355 1546416 
3265.951 957274 452766 884850 1444672 1461674 1372948 1374082 1519009 
3273.666 2069325 2597631 2727680 2567601 1902805 1325203 1598952 1992740 
3281.381 1924712 1710658 1454516 1209996 1073333 1020886 1043517 1193953 
3289.095 1652978 2027292 1832424 1522674 1442325 1436955 1503718 1532155 
3296.810 1362431 1139828 939277 811991 877151 1005793 1117432 1185793 
3304.525 1113381 1033372 1032309 1152597 1585871 1970968 1890508 1704783 
3312.240 1647208 1681038 2011613 2146099 1307247 553625 1005740 1700531 
3319.955 1916462 2049465 2420109 2532936 1713931 819342 677205 698143 409515 
3328.634 289167 869668 1514228 1693091 1617688 1219364 808599 703641 812530 
3337.313 1301124 1714221 1432042 1114178 1382635 1730382 1849270 1764649 
3345.028 1256353 752776 742659 824805 670612 551003 684839 899695 1136652 
3353.707 1274040 1106645 826197 488639 296147 614571 1008854 1046216 1085670 
3362.386 1506554 1815093 1461940 993151 750042 797480 1488362 2299876 
3370.101 2838757 3069270 2703151 2104716 1481715 1015580 1093757 1305964 
3377.816 1346145 1289060 1021988 801322 938779 1155674 1225755 1303394 
3385.531 1533286 1718213 1722268 1506218 734489 160204 774032 1527780 
3393.246 1454443 1301128 1657972 2028869 2058560 1914667 1564262 1253770 
3400.961 1323577 1458857 1438302 1321755 1049963 758920 548148 467799 689875 
3409.640 948362 977144 948547 931056 970095 1181687 1422534 1533303 1678125 
3418.319 2019779 2402986 2785039 2991013 2754540 2307254 1735637 1208787 
3426.034 889642 883159 1574107 2285992 2338752 2127843 1785509 1421331 
3433.749 1185735 1088438 1255997 1488323 1479852 1673566 2839057 3690933 
3441.464 2634504 1367272 1347711 1698217 1989142 2335100 2813649 3106324 
3449.178 2858883 2256221 1070492 185678 826242 1742904 1901152 1881139 
3456.893 1920247 2012268 2332347 2573819 2442425 2076101 1354601 758220 
3464.608 966422 1261445 945929 638104 886725 1202833 1224341 1119380 892646 
3473.287 672347 609787 640346 685633 938268 1821618 2565055 2357082 1743687 
3481.967 804351 127109 708306 1402510 1133579 689982 485228 568069 1356983 
3490.646 2156315 2365348 2117743 1006105 52870 514907 1281503 1602434 
3498.361 1653107 1182199 719651 822472 1158130 1711149 2087326 1614801 
3506.075 1111059 1372529 1790514 2054811 2066365 1380509 723889 930629 
3513.790 1233625 987423 661194 507686 530716 938706 1370596 1441025 1431328 
3522.469 1555079 1630206 1472618 1301940 1312253 1396099 1577933 1656097 
3530.184 1310908 920905 827547 822406 825997 792962 540494 401426 801043 
3538.864 1279186 1503770 1515867 1105936 693746 771505 912359 732732 595004 
3547.543 893619 1148811 799812 484078 882347 1303989 1114205 826242 809569 
3556.222 860728 884444 925631 968684 1099895 1489982 1870042 1987963 1964083 
3564.901 1828661 1599815 1182864 946468 1503989 2026642 1652580 1094347 
3572.616 847489 701165 606543 573138 594098 669650 850487 978356 843830 
3581.295 651126 468247 494408 1113882 1839476 2317529 2531714 2175680 
3589.010 1765847 1762006 2027693 2823880 3418041 2922775 2063704 1210824 
3596.725 543631 503994 674804 760043 838328 922432 913894 626101 336318 
3605.404 295619 395994 662156 947007 1085599 1156207 1177229 1163373 1126705 
3614.083 1093533 1125852 1128659 974814 822706 810830 871735 956926 1148040 
3622.762 1631703 2044420 2035179 1753151 1027746 467241 965093 1495176 
3630.477 1037371 467096 437563 595284 845595 1065217 1020600 947889 1106972 
3639.156 1193067 843421 491836 578720 721510 581972 467569 695930 898336 
3647.836 691248 436729 405101 488061 680417 943198 1247829 1557944 1904557 
3656.515 2056944 1658357 1117892 710619 481857 651684 970869 1326927 1529711 
3665.194 1188125 792523 836916 919226 667340 485356 733130 1171284 1798705 
3673.873 2260435 2067318 1620848 1108777 683177 658519 735365 610073 609722 
3682.552 1127980 1661434 1792184 1657360 1134448 584477 374728 363932 566274 
3691.232 882686 1268517 1574705 1624321 1456296 899929 407171 557010 797632 
3699.911 651490 474788 523103 620798 654759 692964 731256 872931 1346158 
3708.590 1772154 1798069 1574287 992727 475947 537063 796320 1073480 1283136 
3717.269 1225763 1063476 849025 710978 900585 1102562 1038800 848986 487244 
3725.948 232169 486513 831961 917369 943966 980075 1073263 1372066 1641857 
3734.628 1621297 1539064 1548816 1614296 1818243 1957309 1818931 1513478 
3742.343 973653 519889 519978 764563 1247542 1726946 1954481 1942999 1462249 
3751.022 993225 1156354 1303091 761284 222177 342069 553655 360791 206292 
3759.701 510044 844683 782199 744399 1157535 1580272 1687828 1556803 1013526 
3768.380 484006 395399 570567 1131519 1607968 1387739 1018503 913817 863830 
3777.059 759324 711942 846757 1014272 1121820 1123998 754950 583381 1344200 
3785.739 2272935 2852867 3075637 2646887 1907868 952867 228430 471302 905125 
3794.418 899167 753289 487586 310616 525399 868617 1218646 1453434 1311887 
3803.097 1089518 1055151 1027761 875483 719640 626027 629340 877872 1096635 
3811.776 975734 768191 620492 542329 594862 770172 1193121 1526532 1369925 
3820.455 1038090 626101 392639 826753 1332424 1312209 1259421 1560746 
3828.170 1938615 2291276 2477949 2246844 1829230 1320674 876494 744820 
3835.885 742803 810575 827340 561185 285583 214577 294545 556512 960567 
3844.564 1579821 2106231 2172757 2029503 1833685 1496931 828781 292722 
3852.279 483794 816867 767694 748672 1198294 1514011 931713 374551 751965 
3860.958 1340951 1718362 1894080 1661942 1246944 741269 337187 339728 502766 
3869.637 729953 876988 635033 401343 576060 841703 971892 1093469 1289967 
3878.317 1464942 1588693 1544524 970718 572633 1205413 2057984 2635934 
3886.031 2844437 2227326 1374222 726041 272717 169048 361360 1001745 1627696 
3894.711 1718243 1600847 1418610 1203658 1018016 915104 1015526 1179738 
3902.426 1287951 1401500 1585812 1708820 1629908 1440160 1124179 860789 
3910.140 935047 1012856 715500 461901 646030 964025 1296664 1484009 1175593 
3918.820 823805 857069 996790 1088739 1188251 1307777 1421746 1489955 
3926.534 1568747 1764088 1886908 1705389 1453746 1363891 1210916 651259 
3934.249 272805 749841 1479576 2194048 2563064 1842993 1006183 944022 
3941.964 1155768 1498843 1790106 1766979 1525188 920025 410224 600733 908229 
3950.643 799061 729191 1157652 1541580 1341075 1006274 872553 744302 433190 
3959.323 252742 609657 1036103 1115283 1100807 1132017 1134931 1081654 
3967.037 973275 685145 566567 1108452 1761302 2172079 2242318 1445223 712748 
3975.717 1041746 1710748 2440801 2901206 2458358 1741994 1154713 744325 
3983.431 732749 1000233 1680397 2235045 1989201 1486826 1002226 669380 
3991.146 830865 1135208 1393224 1460633 883987 401598 926921 1481086 1114137 
3999.825 652768 739961 976888 1201528 1346446 1204195 1032803 1092421 
4007.540 1169227 1151748 993081 496540 0 
##END=
